conversion 	 Temp /K
0.005   	390.010869
0.010   	381.498452
0.015   	376.713934
0.020   	373.408663
0.025   	370.897853
0.030   	368.882127
0.035   	367.204025
0.040   	365.770625
0.045   	364.522563
0.050   	363.419642
0.055   	362.433402
0.060   	361.542966
0.065   	360.732575
0.070   	359.990045
0.075   	359.305766
0.080   	358.672029
0.085   	358.082554
0.090   	357.532161
0.095   	357.016528
0.100   	356.532013
0.104   	356.075518
0.109   	355.644385
0.114   	355.236320
0.119   	354.849329
0.124   	354.481665
0.129   	354.131795
0.134   	353.798359
0.139   	353.480153
0.144   	353.176101
0.149   	352.885239
0.154   	352.606701
0.159   	352.339704
0.164   	352.083542
0.169   	351.837572
0.174   	351.601208
0.179   	351.373916
0.184   	351.155208
0.189   	350.944636
0.194   	350.741785
0.199   	350.546278
0.204   	350.357762
0.209   	350.175914
0.214   	350.000433
0.219   	349.831039
0.224   	349.667473
0.229   	349.509494
0.234   	349.356877
0.239   	349.209411
0.244   	349.066900
0.249   	348.929160
0.254   	348.796019
0.259   	348.667316
0.264   	348.542898
0.269   	348.422623
0.274   	348.306358
0.279   	348.193976
0.284   	348.085358
0.289   	347.980393
0.294   	347.878974
0.299   	347.781002
0.303   	347.686383
0.308   	347.595028
0.313   	347.506853
0.318   	347.421779
0.323   	347.339729
0.328   	347.260633
0.333   	347.184425
0.338   	347.111039
0.343   	347.040416
0.348   	346.972499
0.353   	346.907233
0.358   	346.844568
0.363   	346.784456
0.368   	346.726850
0.373   	346.671708
0.378   	346.618988
0.383   	346.568653
0.388   	346.520665
0.393   	346.474991
0.398   	346.431598
0.403   	346.390457
0.408   	346.351537
0.413   	346.314814
0.418   	346.280262
0.423   	346.247858
0.428   	346.217579
0.433   	346.189407
0.438   	346.163323
0.443   	346.139308
0.448   	346.117349
0.453   	346.097430
0.458   	346.079539
0.463   	346.063665
0.468   	346.049797
0.473   	346.037926
0.478   	346.028045
0.483   	346.020147
0.488   	346.014229
0.493   	346.010285
0.498   	346.008314
0.502   	346.008314
0.507   	346.010285
0.512   	346.014229
0.517   	346.020147
0.522   	346.028045
0.527   	346.037926
0.532   	346.049797
0.537   	346.063665
0.542   	346.079539
0.547   	346.097430
0.552   	346.117349
0.557   	346.139308
0.562   	346.163323
0.567   	346.189407
0.572   	346.217579
0.577   	346.247858
0.582   	346.280262
0.587   	346.314814
0.592   	346.351537
0.597   	346.390457
0.602   	346.431598
0.607   	346.474991
0.612   	346.520665
0.617   	346.568653
0.622   	346.618988
0.627   	346.671708
0.632   	346.726850
0.637   	346.784456
0.642   	346.844568
0.647   	346.907233
0.652   	346.972499
0.657   	347.040416
0.662   	347.111039
0.667   	347.184425
0.672   	347.260633
0.677   	347.339729
0.682   	347.421779
0.687   	347.506853
0.692   	347.595028
0.697   	347.686383
0.701   	347.781002
0.706   	347.878974
0.711   	347.980393
0.716   	348.085358
0.721   	348.193976
0.726   	348.306358
0.731   	348.422623
0.736   	348.542898
0.741   	348.667316
0.746   	348.796019
0.751   	348.929160
0.756   	349.066900
0.761   	349.209411
0.766   	349.356877
0.771   	349.509494
0.776   	349.667473
0.781   	349.831039
0.786   	350.000433
0.791   	350.175914
0.796   	350.357762
0.801   	350.546278
0.806   	350.741785
0.811   	350.944636
0.816   	351.155208
0.821   	351.373916
0.826   	351.601208
0.831   	351.837572
0.836   	352.083542
0.841   	352.339704
0.846   	352.606701
0.851   	352.885239
0.856   	353.176101
0.861   	353.480153
0.866   	353.798359
0.871   	354.131795
0.876   	354.481665
0.881   	354.849329
0.886   	355.236320
0.891   	355.644385
0.896   	356.075518
0.900   	356.532013
0.905   	357.016528
0.910   	357.532161
0.915   	358.082554
0.920   	358.672029
0.925   	359.305766
0.930   	359.990045
0.935   	360.732575
0.940   	361.542966
0.945   	362.433402
0.950   	363.419642
0.955   	364.522563
0.960   	365.770625
0.965   	367.204025
0.970   	368.882127
0.975   	370.897853
0.980   	373.408663
0.985   	376.713934
0.990   	381.498452
0.995   	390.010869
0.000001	0.0000001
0.005   	411.484968
0.010   	402.020725
0.015   	396.711189
0.020   	393.047400
0.025   	390.266526
0.030   	388.035410
0.035   	386.178960
0.040   	384.593912
0.045   	383.214332
0.050   	381.995590
0.055   	380.906103
0.060   	379.922709
0.065   	379.027929
0.070   	378.208257
0.075   	377.453039
0.080   	376.753731
0.085   	376.103377
0.090   	375.496239
0.095   	374.927531
0.100   	374.393218
0.104   	373.889871
0.109   	373.414549
0.114   	372.964713
0.119   	372.538154
0.124   	372.132943
0.129   	371.747380
0.134   	371.379965
0.139   	371.029363
0.144   	370.694385
0.149   	370.373966
0.154   	370.067147
0.159   	369.773065
0.164   	369.490936
0.169   	369.220052
0.174   	368.959765
0.179   	368.709484
0.184   	368.468671
0.189   	368.236829
0.194   	368.013502
0.199   	367.798272
0.204   	367.590750
0.209   	367.390577
0.214   	367.197423
0.219   	367.010979
0.224   	366.830957
0.229   	366.657093
0.234   	366.489136
0.239   	366.326856
0.244   	366.170035
0.249   	366.018469
0.254   	365.871970
0.259   	365.730359
0.264   	365.593468
0.269   	365.461141
0.274   	365.333228
0.279   	365.209592
0.284   	365.090101
0.289   	364.974631
0.294   	364.863066
0.299   	364.755296
0.303   	364.651217
0.308   	364.550730
0.313   	364.453744
0.318   	364.360171
0.323   	364.269927
0.328   	364.182933
0.333   	364.099117
0.338   	364.018407
0.343   	363.940738
0.348   	363.866045
0.353   	363.794270
0.358   	363.725357
0.363   	363.659251
0.368   	363.595903
0.373   	363.535265
0.378   	363.477292
0.383   	363.421942
0.388   	363.369174
0.393   	363.318951
0.398   	363.271236
0.403   	363.225998
0.408   	363.183204
0.413   	363.142825
0.418   	363.104834
0.423   	363.069204
0.428   	363.035913
0.433   	363.004937
0.438   	362.976257
0.443   	362.949853
0.448   	362.925709
0.453   	362.903809
0.458   	362.884139
0.463   	362.866685
0.468   	362.851437
0.473   	362.838386
0.478   	362.827522
0.483   	362.818839
0.488   	362.812332
0.493   	362.807996
0.498   	362.805829
0.502   	362.805829
0.507   	362.807996
0.512   	362.812332
0.517   	362.818839
0.522   	362.827522
0.527   	362.838386
0.532   	362.851437
0.537   	362.866685
0.542   	362.884139
0.547   	362.903809
0.552   	362.925709
0.557   	362.949853
0.562   	362.976257
0.567   	363.004937
0.572   	363.035913
0.577   	363.069204
0.582   	363.104834
0.587   	363.142825
0.592   	363.183204
0.597   	363.225998
0.602   	363.271236
0.607   	363.318951
0.612   	363.369174
0.617   	363.421942
0.622   	363.477292
0.627   	363.535265
0.632   	363.595903
0.637   	363.659251
0.642   	363.725357
0.647   	363.794270
0.652   	363.866045
0.657   	363.940738
0.662   	364.018407
0.667   	364.099117
0.672   	364.182933
0.677   	364.269927
0.682   	364.360171
0.687   	364.453744
0.692   	364.550730
0.697   	364.651217
0.701   	364.755296
0.706   	364.863066
0.711   	364.974631
0.716   	365.090101
0.721   	365.209592
0.726   	365.333228
0.731   	365.461141
0.736   	365.593468
0.741   	365.730359
0.746   	365.871970
0.751   	366.018469
0.756   	366.170035
0.761   	366.326856
0.766   	366.489136
0.771   	366.657093
0.776   	366.830957
0.781   	367.010979
0.786   	367.197423
0.791   	367.390577
0.796   	367.590750
0.801   	367.798272
0.806   	368.013502
0.811   	368.236829
0.816   	368.468671
0.821   	368.709484
0.826   	368.959765
0.831   	369.220052
0.836   	369.490936
0.841   	369.773065
0.846   	370.067147
0.851   	370.373966
0.856   	370.694385
0.861   	371.029363
0.866   	371.379965
0.871   	371.747380
0.876   	372.132943
0.881   	372.538154
0.886   	372.964713
0.891   	373.414549
0.896   	373.889871
0.900   	374.393218
0.905   	374.927531
0.910   	375.496239
0.915   	376.103377
0.920   	376.753731
0.925   	377.453039
0.930   	378.208257
0.935   	379.027929
0.940   	379.922709
0.945   	380.906103
0.950   	381.995590
0.955   	383.214332
0.960   	384.593912
0.965   	386.178960
0.970   	388.035410
0.975   	390.266526
0.980   	393.047400
0.985   	396.711189
0.990   	402.020725
0.995   	411.484968

